Time	Length	Velocity	Acceleration	Damping	Tension	2	
0	5	0	0	5	5	0	
0.001	4.99999	0.009999896	9.999896	4.99999	4.99999	0	
0.002	4.999969	0.01999959	9.999691	4.999969	4.999969	0	
0.003	4.999938	0.02999897	9.999386	4.999938	4.999938	0	
0.004	4.999898	0.03999795	9.998981	4.999898	4.999898	0	
0.005	4.999847	0.04999643	9.998475	4.999847	4.999847	0	
0.006	4.999787	0.0599943	9.997869	4.999787	4.999787	0	
0.007	4.999717	0.06999147	9.997169	4.999717	4.999717	0	
0.008	4.999636	0.07998783	9.996364	4.999636	4.999636	0	
0.009000001	4.999546	0.08998329	9.99546	4.999546	4.999546	0	
0.01	4.999445	0.09997775	9.994453	4.999445	4.999445	0	
0.011	4.999335	0.1099711	9.993352	4.999335	4.999335	0	
0.012	4.999215	0.1199632	9.992146	4.999215	4.999215	0	
0.013	4.999084	0.1299541	9.990845	4.999084	4.999084	0	
0.014	4.998943	0.1399435	9.98944	4.998943	4.998943	0	
0.015	4.998793	0.1499315	9.987933	4.998793	4.998793	0	
0.016	4.998633	0.1599178	9.986331	4.998633	4.998633	0	
0.017	4.998463	0.1699024	9.984633	4.998463	4.998463	0	
0.018	4.998283	0.1798853	9.982832	4.998283	4.998283	0	
0.019	4.998094	0.1898662	9.980934	4.998094	4.998094	0	
0.02	4.997894	0.1998451	9.978937	4.997894	4.997894	0	
0.021	4.997684	0.209822	9.976838	4.997684	4.997684	0	
0.022	4.997464	0.2197966	9.974641	4.997464	4.997464	0	
0.023	4.997234	0.2297689	9.972342	4.997234	4.997234	0	
0.024	4.996994	0.2397389	9.969946	4.996994	4.996994	0	
0.025	4.996745	0.2497063	9.967445	4.996745	4.996745	0	
0.026	4.996485	0.2596712	9.964854	4.996485	4.996485	0	
0.027	4.996216	0.2696334	9.962155	4.996216	4.996216	0	
0.028	4.995936	0.2795927	9.959361	4.995936	4.995936	0	
0.029	4.995646	0.2895492	9.956464	4.995646	4.995646	0	
0.03	4.995347	0.2995026	9.953469	4.995347	4.995347	0	
0.031	4.995038	0.309453	9.950375	4.995038	4.995038	0	
0.032	4.994718	0.3194002	9.947181	4.994718	4.994718	0	
0.033	4.994389	0.3293441	9.943887	4.994389	4.994389	0	
0.034	4.99405	0.3392846	9.940492	4.99405	4.99405	0	
0.035	4.9937	0.3492216	9.937002	4.9937	4.9937	0	
0.036	4.993341	0.359155	9.933407	4.993341	4.993341	0	
0.037	4.992972	0.3690847	9.929719	4.992972	4.992972	0	
0.038	4.992593	0.3790106	9.925928	4.992593	4.992593	0	
0.039	4.992204	0.3889327	9.922038	4.992204	4.992204	0	
0.04	4.991805	0.3988507	9.918053	4.991805	4.991805	0	
0.041	4.991396	0.4087647	9.913962	4.991396	4.991396	0	
0.042	4.990978	0.4186745	9.909777	4.990978	4.990978	0	
0.043	4.990549	0.42858	9.90549	4.990549	4.990549	0	
0.044	4.990111	0.4384811	9.901105	4.990111	4.990111	0	
0.045	4.989662	0.4483777	9.896624	4.989662	4.989662	0	
0.046	4.989204	0.4582697	9.892038	4.989204	4.989204	0	
0.047	4.988736	0.4681571	9.887357	4.988736	4.988736	0	
0.048	4.988258	0.4780397	9.88258	4.988258	4.988258	0	
0.049	4.98777	0.4879174	9.877699	4.98777	4.98777	0	
0.05	4.987272	0.4977901	9.872723	4.987272	4.987272	0	
0.051	4.986764	0.5076578	9.867644	4.986764	4.986764	0	
0.052	4.986247	0.5175202	9.862468	4.986247	4.986247	0	
0.053	4.98572	0.5273774	9.857196	4.98572	4.98572	0	
0.054	4.985182	0.5372292	9.851824	4.985182	4.985182	0	
0.055	4.984635	0.5470756	9.846351	4.984635	4.984635	0	
0.056	4.984078	0.5569164	9.840784	4.984078	4.984078	0	
0.057	4.983511	0.5667515	9.835115	4.983511	4.983511	0	
0.058	4.982935	0.5765808	9.829348	4.982935	4.982935	0	
0.059	4.982348	0.5864043	9.823485	4.982348	4.982348	0	
0.06	4.981752	0.5962219	9.817522	4.981752	4.981752	0	
0.061	4.981146	0.6060333	9.811462	4.981146	4.981146	0	
0.062	4.980531	0.6158386	9.805304	4.980531	4.980531	0	
0.063	4.979905	0.6256377	9.799049	4.979905	4.979905	0	
0.064	4.97927	0.6354304	9.792696	4.97927	4.97927	0	
0.06500001	4.978624	0.6452166	9.786241	4.978624	4.978624	0	
0.066	4.977969	0.6549963	9.779694	4.977969	4.977969	0	
0.067	4.977304	0.6647694	9.773044	4.977304	4.977304	0	
0.068	4.97663	0.6745356	9.766297	4.97663	4.97663	0	
0.06900001	4.975945	0.6842951	9.759458	4.975945	4.975945	0	
0.07	4.975252	0.6940476	9.752514	4.975252	4.975252	0	
0.071	4.974548	0.7037931	9.745479	4.974548	4.974548	0	
0.072	4.973835	0.7135314	9.738342	4.973835	4.973835	0	
0.07300001	4.973111	0.7232625	9.731112	4.973111	4.973111	0	
0.074	4.972378	0.7329863	9.723782	4.972378	4.972378	0	
0.075	4.971635	0.7427027	9.716355	4.971635	4.971635	0	
0.07600001	4.970883	0.7524115	9.708829	4.970883	4.970883	0	
0.07700001	4.970121	0.7621127	9.701207	4.970121	4.970121	0	
0.078	4.969349	0.7718062	9.69349	4.969349	4.969349	0	
0.079	4.968567	0.7814919	9.685674	4.968567	4.968567	0	
0.08000001	4.967776	0.7911696	9.677762	4.967776	4.967776	0	
0.081	4.966976	0.8008394	9.669754	4.966976	4.966976	0	
0.082	4.966165	0.8105011	9.661653	4.966165	4.966165	0	
0.083	4.965345	0.8201545	9.653449	4.965345	4.965345	0	
0.08400001	4.964515	0.8297997	9.645151	4.964515	4.964515	0	
0.085	4.963675	0.8394365	9.636756	4.963675	4.963675	0	
0.086	4.962827	0.8490647	9.628264	4.962827	4.962827	0	
0.087	4.961968	0.8586844	9.619679	4.961968	4.961968	0	
0.08800001	4.9611	0.8682954	9.610996	4.9611	4.9611	0	
0.089	4.960222	0.8778976	9.602217	4.960222	4.960222	0	
0.09	4.959334	0.8874909	9.593344	4.959334	4.959334	0	
0.09100001	4.958437	0.8970753	9.584373	4.958437	4.958437	0	
0.09200001	4.95753	0.9066506	9.575303	4.95753	4.95753	0	
0.093	4.956614	0.9162167	9.566143	4.956614	4.956614	0	
0.094	4.955688	0.9257736	9.556887	4.955688	4.955688	0	
0.09500001	4.954753	0.9353212	9.547531	4.954753	4.954753	0	
0.096	4.953808	0.9448593	9.538085	4.953808	4.953808	0	
0.097	4.952854	0.9543878	9.528539	4.952854	4.952854	0	
0.098	4.95189	0.9639067	9.518903	4.95189	4.95189	0	
0.09900001	4.950917	0.9734159	9.509165	4.950917	4.950917	0	
0.1	4.949934	0.9829152	9.499338	4.949934	4.949934	0	
0.101	4.948941	0.9924046	9.489411	4.948941	4.948941	0	
0.102	4.947939	1.001884	9.479394	4.947939	4.947939	0	
0.103	4.946928	1.011353	9.46928	4.946928	4.946928	0	
0.104	4.945907	1.020812	9.459071	4.945907	4.945907	0	
0.105	4.944877	1.030261	9.448768	4.944877	4.944877	0	
0.106	4.943837	1.039699	9.438374	4.943837	4.943837	0	
0.107	4.942788	1.049127	9.427879	4.942788	4.942788	0	
0.108	4.94173	1.058545	9.417295	4.94173	4.94173	0	
0.109	4.940661	1.067951	9.406615	4.940661	4.940661	0	
0.11	4.939584	1.077347	9.395841	4.939584	4.939584	0	
0.111	4.938498	1.086732	9.384974	4.938498	4.938498	0	
0.112	4.937401	1.096106	9.374014	4.937401	4.937401	0	
0.113	4.936296	1.105469	9.362958	4.936296	4.936296	0	
0.114	4.935181	1.114821	9.351811	4.935181	4.935181	0	
0.115	4.934057	1.124161	9.340569	4.934057	4.934057	0	
0.116	4.932923	1.133491	9.329237	4.932923	4.932923	0	
0.117	4.931781	1.142808	9.317805	4.931781	4.931781	0	
0.118	4.930629	1.152115	9.306287	4.930629	4.930629	0	
0.119	4.929467	1.161409	9.294673	4.929467	4.929467	0	
0.12	4.928297	1.170692	9.282965	4.928297	4.928297	0	
0.121	4.927116	1.179963	9.271166	4.927116	4.927116	0	
0.122	4.925927	1.189223	9.259272	4.925927	4.925927	0	
0.123	4.924729	1.19847	9.247287	4.924729	4.924729	0	
0.124	4.923521	1.207705	9.23521	4.923521	4.923521	0	
0.125	4.922304	1.216928	9.223042	4.922304	4.922304	0	
0.126	4.921078	1.226139	9.21078	4.921078	4.921078	0	
0.127	4.919843	1.235337	9.198427	4.919843	4.919843	0	
0.128	4.918598	1.244523	9.185983	4.918598	4.918598	0	
0.129	4.917345	1.253697	9.173444	4.917345	4.917345	0	
0.13	4.916081	1.262858	9.160817	4.916081	4.916081	0	
0.131	4.91481	1.272006	9.148094	4.91481	4.91481	0	
0.132	4.913528	1.281141	9.135285	4.913528	4.913528	0	
0.133	4.912238	1.290263	9.122382	4.912238	4.912238	0	
0.134	4.910939	1.299373	9.109387	4.910939	4.910939	0	
0.135	4.90963	1.308469	9.096302	4.90963	4.90963	0	
0.136	4.908313	1.317552	9.083127	4.908313	4.908313	0	
0.137	4.906986	1.326622	9.069861	4.906986	4.906986	0	
0.138	4.905651	1.335679	9.056505	4.905651	4.905651	0	
0.139	4.904306	1.344722	9.043059	4.904306	4.904306	0	
0.14	4.902952	1.353751	9.029521	4.902952	4.902952	0	
0.141	4.901589	1.362767	9.015895	4.901589	4.901589	0	
0.142	4.900218	1.371769	9.002176	4.900218	4.900218	0	
0.143	4.898837	1.380758	8.988369	4.898837	4.898837	0	
0.144	4.897447	1.389732	8.97447	4.897447	4.897447	0	
0.145	4.896049	1.398693	8.960485	4.896049	4.896049	0	
0.146	4.894641	1.407639	8.94641	4.894641	4.894641	0	
0.147	4.893224	1.416571	8.932245	4.893224	4.893224	0	
0.148	4.891798	1.425489	8.917989	4.891798	4.891798	0	
0.149	4.890364	1.434393	8.903641	4.890364	4.890364	0	
0.15	4.888921	1.443282	8.88921	4.888921	4.888921	0	
0.151	4.887469	1.452157	8.874687	4.887469	4.887469	0	
0.152	4.886008	1.461017	8.860078	4.886008	4.886008	0	
0.153	4.884538	1.469862	8.845381	4.884538	4.884538	0	
0.154	4.883059	1.478693	8.830591	4.883059	4.883059	0	
0.155	4.881572	1.487509	8.815716	4.881572	4.881572	0	
0.156	4.880075	1.496309	8.800756	4.880075	4.880075	0	
0.157	4.878571	1.505095	8.785705	4.878571	4.878571	0	
0.158	4.877057	1.513866	8.770567	4.877057	4.877057	0	
0.159	4.875534	1.522621	8.755342	4.875534	4.875534	0	
0.16	4.874002	1.531361	8.740027	4.874002	4.874002	0	
0.161	4.872462	1.540086	8.724625	4.872462	4.872462	0	
0.162	4.870914	1.548795	8.709136	4.870914	4.870914	0	
0.163	4.869356	1.557488	8.693561	4.869356	4.869356	0	
0.164	4.86779	1.566166	8.6779	4.86779	4.86779	0	
0.165	4.866215	1.574828	8.662149	4.866215	4.866215	0	
0.166	4.864632	1.583475	8.646318	4.864632	4.864632	0	
0.167	4.863039	1.592105	8.630396	4.863039	4.863039	0	
0.168	4.861439	1.60072	8.614388	4.861439	4.861439	0	
0.169	4.859829	1.609318	8.598294	4.859829	4.859829	0	
0.17	4.858212	1.6179	8.582115	4.858212	4.858212	0	
0.171	4.856585	1.626466	8.565852	4.856585	4.856585	0	
0.172	4.85495	1.635015	8.549501	4.85495	4.85495	0	
0.173	4.853307	1.643548	8.533065	4.853307	4.853307	0	
0.174	4.851655	1.652065	8.516548	4.851655	4.851655	0	
0.175	4.849994	1.660565	8.49994	4.849994	4.849994	0	
0.176	4.848325	1.669048	8.483252	4.848325	4.848325	0	
0.177	4.846647	1.677515	8.466474	4.846647	4.846647	0	
0.178	4.844962	1.685964	8.449615	4.844962	4.844962	0	
0.179	4.843267	1.694397	8.432674	4.843267	4.843267	0	
0.18	4.841564	1.702813	8.415643	4.841564	4.841564	0	
0.181	4.839853	1.711211	8.398531	4.839853	4.839853	0	
0.182	4.838133	1.719593	8.381332	4.838133	4.838133	0	
0.183	4.836405	1.727957	8.364056	4.836405	4.836405	0	
0.184	4.834669	1.736303	8.34669	4.834669	4.834669	0	
0.185	4.832924	1.744633	8.329246	4.832924	4.832924	0	
0.186	4.831172	1.752944	8.311714	4.831172	4.831172	0	
0.187	4.829411	1.761239	8.294105	4.829411	4.829411	0	
0.188	4.827641	1.769515	8.276411	4.827641	4.827641	0	
0.189	4.825863	1.777774	8.258634	4.825863	4.825863	0	
0.19	4.824077	1.786014	8.24077	4.824077	4.824077	0	
0.191	4.822283	1.794237	8.22283	4.822283	4.822283	0	
0.192	4.82048	1.802442	8.204805	4.82048	4.82048	0	
0.193	4.81867	1.810629	8.186698	4.81867	4.81867	0	
0.194	4.816851	1.818797	8.168511	4.816851	4.816851	0	
0.195	4.815024	1.826947	8.150243	4.815024	4.815024	0	
0.196	4.813189	1.835079	8.131889	4.813189	4.813189	0	
0.197	4.811346	1.843193	8.11346	4.811346	4.811346	0	
0.198	4.809494	1.851288	8.094945	4.809494	4.809494	0	
0.199	4.807635	1.859364	8.076352	4.807635	4.807635	0	
0.2	4.805768	1.867422	8.05768	4.805768	4.805768	0	
0.201	4.803892	1.875461	8.038921	4.803892	4.803892	0	
0.202	4.802009	1.883481	8.020089	4.802009	4.802009	0	
0.203	4.800117	1.891482	8.001172	4.800117	4.800117	0	
0.204	4.798218	1.899464	7.982182	4.798218	4.798218	0	
0.205	4.79631	1.907427	7.963106	4.79631	4.79631	0	
0.206	4.794395	1.915371	7.943952	4.794395	4.794395	0	
0.207	4.792472	1.923296	7.924718	4.792472	4.792472	0	
0.208	4.790541	1.931201	7.905408	4.790541	4.790541	0	
0.209	4.788601	1.939087	7.886018	4.788601	4.788601	0	
0.21	4.786654	1.946954	7.866546	4.786654	4.786654	0	
0.211	4.784699	1.954801	7.846998	4.784699	4.784699	0	
0.212	4.782737	1.962628	7.827369	4.782737	4.782737	0	
0.213	4.780766	1.970436	7.80767	4.780766	4.780766	0	
0.214	4.778789	1.978224	7.787884	4.778789	4.778789	0	
0.215	4.776803	1.985992	7.768027	4.776803	4.776803	0	
0.216	4.774808	1.99374	7.74809	4.774808	4.774808	0	
0.217	4.772807	2.001468	7.728071	4.772807	4.772807	0	
0.218	4.770798	2.009176	7.707982	4.770798	4.770798	0	
0.219	4.768781	2.016864	7.687815	4.768781	4.768781	0	
0.22	4.766757	2.024531	7.667568	4.766757	4.766757	0	
0.221	4.764724	2.032178	7.647245	4.764724	4.764724	0	
0.222	4.762685	2.039805	7.626847	4.762685	4.762685	0	
0.223	4.760637	2.047411	7.606376	4.760637	4.760637	0	
0.224	4.758582	2.054997	7.585824	4.758582	4.758582	0	
0.225	4.75652	2.062562	7.565197	4.75652	4.75652	0	
0.226	4.754449	2.070107	7.544499	4.754449	4.754449	0	
0.227	4.752372	2.077631	7.523719	4.752372	4.752372	0	
0.228	4.750287	2.085134	7.502869	4.750287	4.750287	0	
0.229	4.748194	2.092616	7.481942	4.748194	4.748194	0	
0.23	4.746094	2.100076	7.460943	4.746094	4.746094	0	
0.231	4.743987	2.107516	7.439869	4.743987	4.743987	0	
0.232	4.741872	2.114935	7.418719	4.741872	4.741872	0	
0.233	4.739749	2.122332	7.397497	4.739749	4.739749	0	
0.234	4.737619	2.129709	7.3762	4.737619	4.737619	0	
0.235	4.735483	2.137063	7.354827	4.735483	4.735483	0	
0.236	4.733338	2.144397	7.333386	4.733338	4.733338	0	
0.237	4.731186	2.151708	7.311869	4.731186	4.731186	0	
0.238	4.729027	2.158999	7.290277	4.729027	4.729027	0	
0.239	4.726861	2.166267	7.268613	4.726861	4.726861	0	
0.24	4.724688	2.173514	7.246878	4.724688	4.724688	0	
0.241	4.722507	2.180739	7.225071	4.722507	4.722507	0	
0.242	4.720319	2.187943	7.203193	4.720319	4.720319	0	
0.243	4.718124	2.195124	7.181239	4.718124	4.718124	0	
0.244	4.715921	2.202283	7.159219	4.715921	4.715921	0	
0.245	4.713712	2.20942	7.137122	4.713712	4.713712	0	
0.246	4.711495	2.216535	7.114959	4.711495	4.711495	0	
0.247	4.709272	2.223628	7.09272	4.709272	4.709272	0	
0.248	4.707041	2.230698	7.070414	4.707041	4.707041	0	
0.249	4.704803	2.237746	7.048038	4.704803	4.704803	0	
0.25	4.702559	2.244771	7.025589	4.702559	4.702559	0	
0.251	4.700307	2.251775	7.00307	4.700307	4.700307	0	
0.252	4.698048	2.258755	6.980483	4.698048	4.698048	0	
0.253	4.695783	2.265713	6.957826	4.695783	4.695783	0	
0.254	4.69351	2.272648	6.935102	4.69351	4.69351	0	
0.255	4.69123	2.27956	6.912308	4.69123	4.69123	0	
0.256	4.688944	2.286449	6.88944	4.688944	4.688944	0	
0.257	4.686651	2.293316	6.866508	4.686651	4.686651	0	
0.258	4.68435	2.300159	6.843509	4.68435	4.68435	0	
0.259	4.682044	2.30698	6.820436	4.682044	4.682044	0	
0.26	4.679729	2.313777	6.7973	4.679729	4.679729	0	
0.261	4.677409	2.320551	6.774093	4.677409	4.677409	0	
0.262	4.675082	2.327302	6.750821	4.675082	4.675082	0	
0.263	4.672748	2.33403	6.727479	4.672748	4.672748	0	
0.264	4.670407	2.340734	6.704072	4.670407	4.670407	0	
0.265	4.66806	2.347414	6.680597	4.66806	4.66806	0	
0.266	4.665706	2.354071	6.657061	4.665706	4.665706	0	
0.267	4.663345	2.360705	6.633453	4.663345	4.663345	0	
0.268	4.660977	2.367315	6.609778	4.660977	4.660977	0	
0.269	4.658604	2.373901	6.586038	4.658604	4.658604	0	
0.27	4.656223	2.380463	6.562235	4.656223	4.656223	0	
0.271	4.653836	2.387001	6.538366	4.653836	4.653836	0	
0.272	4.651443	2.393516	6.514431	4.651443	4.651443	0	
0.273	4.649043	2.400006	6.490429	4.649043	4.649043	0	
0.274	4.646636	2.406473	6.466364	4.646636	4.646636	0	
0.275	4.644223	2.412915	6.442234	4.644223	4.644223	0	
0.276	4.641804	2.419333	6.418042	4.641804	4.641804	0	
0.277	4.639378	2.425727	6.393784	4.639378	4.639378	0	
0.278	4.636946	2.432096	6.369463	4.636946	4.636946	0	
0.279	4.634508	2.438441	6.34508	4.634508	4.634508	0	
0.28	4.632063	2.444762	6.320632	4.632063	4.632063	0	
0.281	4.629612	2.451058	6.296122	4.629612	4.629612	0	
0.282	4.627154	2.45733	6.27155	4.627154	4.627154	0	
0.283	4.624691	2.463576	6.246911	4.624691	4.624691	0	
0.284	4.622221	2.469799	6.222215	4.622221	4.622221	0	
0.285	4.619745	2.475996	6.197453	4.619745	4.619745	0	
0.286	4.617263	2.482169	6.172635	4.617263	4.617263	0	
0.287	4.614775	2.488317	6.147748	4.614775	4.614775	0	
0.288	4.61228	2.494439	6.122807	4.61228	4.61228	0	
0.289	4.60978	2.500537	6.097797	4.60978	4.60978	0	
0.29	4.607274	2.50661	6.07274	4.607274	4.607274	0	
0.291	4.604761	2.512658	6.047612	4.604761	4.604761	0	
0.292	4.602242	2.51868	6.022423	4.602242	4.602242	0	
0.293	4.599718	2.524677	5.997177	4.599718	4.599718	0	
0.294	4.597187	2.530649	5.971873	4.597187	4.597187	0	
0.295	4.59465	2.536596	5.946507	4.59465	4.59465	0	
0.296	4.592108	2.542517	5.92108	4.592108	4.592108	0	
0.297	4.589559	2.548412	5.895597	4.589559	4.589559	0	
0.298	4.587005	2.554282	5.870051	4.587005	4.587005	0	
0.299	4.584445	2.560127	5.844453	4.584445	4.584445	0	
0.3	4.581879	2.565946	5.818793	4.581879	4.581879	0	
0.301	4.579308	2.571739	5.793073	4.579308	4.579308	0	
0.302	4.57673	2.577506	5.767304	4.57673	4.57673	0	
0.303	4.574147	2.583247	5.741474	4.574147	4.574147	0	
0.304	4.571558	2.588963	5.715581	4.571558	4.571558	0	
0.305	4.568963	2.594653	5.689637	4.568963	4.568963	0	
0.306	4.566363	2.600316	5.663631	4.566363	4.566363	0	
0.307	4.563757	2.605954	5.637578	4.563757	4.563757	0	
0.308	4.561146	2.611565	5.611462	4.561146	4.561146	0	
0.309	4.558529	2.617151	5.585289	4.558529	4.558529	0	
0.31	4.555906	2.62271	5.559065	4.555906	4.555906	0	
0.311	4.553278	2.628242	5.532779	4.553278	4.553278	0	
0.312	4.550644	2.633749	5.506445	4.550644	4.550644	0	
0.313	4.548005	2.639229	5.480051	4.548005	4.548005	0	
0.314	4.54536	2.644682	5.453603	4.54536	4.54536	0	
0.315	4.54271	2.65011	5.427104	4.54271	4.54271	0	
0.316	4.540055	2.65551	5.400546	4.540055	4.540055	0	
0.317	4.537394	2.660884	5.373943	4.537394	4.537394	0	
0.318	4.534728	2.666231	5.347282	4.534728	4.534728	0	
0.319	4.532056	2.671552	5.320568	4.532056	4.532056	0	
0.32	4.529379	2.676846	5.293798	4.529379	4.529379	0	
0.321	4.526697	2.682113	5.266976	4.526697	4.526697	0	
0.322	4.52401	2.687353	5.240101	4.52401	4.52401	0	
0.323	4.521318	2.692566	5.21318	4.521318	4.521318	0	
0.324	4.51862	2.697752	5.186205	4.51862	4.51862	0	
0.325	4.515917	2.702912	5.159174	4.515917	4.515917	0	
0.326	4.513209	2.708044	5.132096	4.513209	4.513209	0	
0.327	4.510496	2.713149	5.104966	4.510496	4.510496	0	
0.328	4.507778	2.718227	5.077783	4.507778	4.507778	0	
0.329	4.505054	2.723277	5.050548	4.505054	4.505054	0	
0.33	4.502326	2.728301	5.023265	4.502326	4.502326	0	
0.331	4.499593	2.733296	4.99593	4.499593	4.499593	0	
0.332	4.496855	2.738265	4.968554	4.496855	4.496855	0	
0.333	4.494112	2.743206	4.941124	4.494112	4.494112	0	
0.334	4.491364	2.74812	4.913642	4.491364	4.491364	0	
0.335	4.488611	2.753006	4.886113	4.488611	4.488611	0	
0.336	4.485853	2.757864	4.858532	4.485853	4.485853	0	
0.337	4.48309	2.762695	4.830908	4.48309	4.48309	0	
0.338	4.480323	2.767498	4.803233	4.480323	4.480323	0	
0.339	4.477551	2.772274	4.775509	4.477551	4.477551	0	
0.34	4.474774	2.777022	4.747738	4.474774	4.474774	0	
0.341	4.471992	2.781742	4.719924	4.471992	4.471992	0	
0.342	4.469206	2.786434	4.692059	4.469206	4.469206	0	
0.343	4.466414	2.791098	4.664151	4.466414	4.466414	0	
0.344	4.463619	2.795734	4.63619	4.463619	4.463619	0	
0.345	4.460819	2.800342	4.608188	4.460819	4.460819	0	
0.346	4.458014	2.804923	4.580146	4.458014	4.458014	0	
0.347	4.455204	2.809475	4.552049	4.455204	4.455204	0	
0.348	4.452391	2.813999	4.523908	4.452391	4.452391	0	
0.349	4.449572	2.818494	4.495725	4.449572	4.449572	0	
0.35	4.446749	2.822962	4.467495	4.446749	4.446749	0	
0.351	4.443922	2.827401	4.439222	4.443922	4.443922	0	
0.352	4.44109	2.831812	4.410906	4.44109	4.44109	0	
0.353	4.438254	2.836195	4.382543	4.438254	4.438254	0	
0.354	4.435413	2.840549	4.354136	4.435413	4.435413	0	
0.355	4.432569	2.844874	4.325688	4.432569	4.432569	0	
0.356	4.42972	2.849172	4.297197	4.42972	4.42972	0	
0.357	4.426866	2.85344	4.268669	4.426866	4.426866	0	
0.358	4.424008	2.85768	4.240087	4.424008	4.424008	0	
0.359	4.421147	2.861892	4.211468	4.421147	4.421147	0	
0.36	4.418281	2.866075	4.182816	4.418281	4.418281	0	
0.361	4.415411	2.870229	4.154112	4.415411	4.415411	0	
0.362	4.412537	2.874354	4.12537	4.412537	4.412537	0	
